# wavelength [micron], EQE [1]
2.999999999999999889e-01,4.064421468068107484e-08
3.044088176352705566e-01,9.110001536583365231e-07
3.088176352705410688e-01,1.871686552586962891e-05
3.132264529058116365e-01,3.539127630130797569e-04
3.176352705410821486e-01,6.170734428893025897e-03
3.220440881763527163e-01,3.932100683467434910e-02
3.264529058116232285e-01,8.201878587993431668e-02
3.308617234468937962e-01,1.564416362031865737e-01
3.352705410821643084e-01,2.333654464890594915e-01
3.396793587174348761e-01,3.385652346821107495e-01
3.440881763527053883e-01,4.250981078475826180e-01
3.484969939879759560e-01,5.167608199651012590e-01
3.529058116232464681e-01,5.875756843364954296e-01
3.573146292585170358e-01,6.390085109673788732e-01
3.617234468937875480e-01,6.741824265697000662e-01
3.661322645290581157e-01,6.891386300022174227e-01
3.705410821643286834e-01,6.959418251284155144e-01
3.749498997995991956e-01,6.879216482716582481e-01
3.793587174348697078e-01,6.798073041599814736e-01
3.837675350701402754e-01,6.901737357311847898e-01
3.881763527054108431e-01,7.055340870224158234e-01
3.925851703406813553e-01,7.177492782857453069e-01
3.969939879759519230e-01,7.284450491917032755e-01
4.014028056112224352e-01,7.402151885289492972e-01
4.058116232464930029e-01,7.510757695548295754e-01
4.102204408817635151e-01,7.628174928936035659e-01
4.146292585170340828e-01,7.752891564627999443e-01
4.190380761523045949e-01,7.880314250669833154e-01
4.234468937875751626e-01,8.007177401313476661e-01
4.278557114228457303e-01,8.131695274190909872e-01
4.322645290581162425e-01,8.256132692808756390e-01
4.366733466933867547e-01,8.378616237142504364e-01
4.410821643286573224e-01,8.497885898702497443e-01
4.454909819639278901e-01,8.620514793075666482e-01
4.498997995991984022e-01,8.733631222047979481e-01
4.543086172344689144e-01,8.829898824141415581e-01
4.587174348697394821e-01,8.915877416394966115e-01
4.631262525050100498e-01,8.983318556836107360e-01
4.675350701402805620e-01,9.038070842665424376e-01
4.719438877755510742e-01,9.085111567933542576e-01
4.763527054108216419e-01,9.125057860623029260e-01
4.807615230460922096e-01,9.157725724906846665e-01
4.851703406813627772e-01,9.186289013253687852e-01
4.895791583166332894e-01,9.207303400501556379e-01
4.939879759519038016e-01,9.218852148712471939e-01
4.983967935871743693e-01,9.224030803386749078e-01
5.028056112224449370e-01,9.222231664597441148e-01
5.072144288577153937e-01,9.215175206186789758e-01
5.116232464929859614e-01,9.203527466177074956e-01
5.160320641282565290e-01,9.187246345616343346e-01
5.204408817635270967e-01,9.168542181420462622e-01
5.248496993987976644e-01,9.144652288095685977e-01
5.292585170340681211e-01,9.119789522184029718e-01
5.336673346693386888e-01,9.093483351066571352e-01
5.380761523046092565e-01,9.066966282098264385e-01
5.424849699398797132e-01,9.040914546001741492e-01
5.468937875751502808e-01,9.015712397003006195e-01
5.513026052104208485e-01,8.990196743172764737e-01
5.557114228456914162e-01,8.962815979447900094e-01
5.601202404809619839e-01,8.936574664273644331e-01
5.645290581162325516e-01,8.904989613425244865e-01
5.689378757515030083e-01,8.874720012354981868e-01
5.733466933867735760e-01,8.845861754371242558e-01
5.777555110220440326e-01,8.817996965941929943e-01
5.821643286573146003e-01,8.791909495382235207e-01
5.865731462925851680e-01,8.767236670640663476e-01
5.909819639278557357e-01,8.741532102674042237e-01
5.953907815631263034e-01,8.712479216752925248e-01
5.997995991983968711e-01,8.682382384480062942e-01
6.042084168336674388e-01,8.646935240681750123e-01
6.086172344689378955e-01,8.609485979631477104e-01
6.130260521042084632e-01,8.567887579392226005e-01
6.174348697394789198e-01,8.522870985484785056e-01
6.218436873747494875e-01,8.472703764201133803e-01
6.262525050100200552e-01,8.416427172020142233e-01
6.306613226452906229e-01,8.357740894755369965e-01
6.350701402805611906e-01,8.298823782516437930e-01
6.394789579158317583e-01,8.237353562289573272e-01
6.438877755511022150e-01,8.179283691671073164e-01
6.482965931863727826e-01,8.120022476397942279e-01
6.527054108216432393e-01,8.057215291091892606e-01
6.571142284569138070e-01,7.992186849659282943e-01
6.615230460921843747e-01,7.924355853250786286e-01
6.659318637274549424e-01,7.852076114295246656e-01
6.703406813627255101e-01,7.780193860379527315e-01
6.747494989979960778e-01,7.710887367535943504e-01
6.791583166332666455e-01,7.641655165061580490e-01
6.835671342685371021e-01,7.577619998134683676e-01
6.879759519038076698e-01,7.514633029287693944e-01
6.923847695390781265e-01,7.450025963253779082e-01
6.967935871743486942e-01,7.384441466652168495e-01
7.012024048096192619e-01,7.317524473295635712e-01
7.056112224448898296e-01,7.246216817247876918e-01
7.100200400801603973e-01,7.178808222215997681e-01
7.144288577154309650e-01,7.116336872283263171e-01
7.188376753507014216e-01,7.060257732843674416e-01
7.232464929859719893e-01,7.010787357050769497e-01
7.276553106212425570e-01,6.967584749498002550e-01
7.320641282565130137e-01,6.927971709092936026e-01
7.364729458917835814e-01,6.886050764119706624e-01
7.408817635270541491e-01,6.831702763667530931e-01
7.452905811623247168e-01,6.748261810225707480e-01
7.496993987975952844e-01,6.611632746774620539e-01
7.541082164328658521e-01,6.386342605969246300e-01
7.585170340681363088e-01,6.037203587253006098e-01
7.629258517034068765e-01,5.538685342552107649e-01
7.673346693386773332e-01,4.902601536246356528e-01
7.717434869739479009e-01,4.195371162079679639e-01
7.761523046092184686e-01,3.513995768226548799e-01
7.805611222444890362e-01,2.932471870568029160e-01
7.849699398797596039e-01,2.482613366366805407e-01
7.893787575150301716e-01,2.160870603337936846e-01
7.937875751503007393e-01,1.947246979989847859e-01
7.981963927855711960e-01,1.813639552795362486e-01
8.026052104208416527e-01,1.728612659856167411e-01
8.070140280561122204e-01,1.651733419558596427e-01
8.114228456913827880e-01,1.578409397208024867e-01
8.158316633266533557e-01,1.508366954606624177e-01
8.202404809619239234e-01,1.441115426931034449e-01
8.246492985971944911e-01,1.376568173543920581e-01
8.290581162324650588e-01,1.314519839607360407e-01
8.334669338677356265e-01,1.255003115029649507e-01
8.378757515030059722e-01,1.198106877749965937e-01
8.422845691382765398e-01,1.143857254816532942e-01
8.466933867735471075e-01,1.092321064882673526e-01
8.511022044088176752e-01,1.043600783087020589e-01
8.555110220440882429e-01,9.979305237953853269e-02
8.599198396793588106e-01,9.552152026695980014e-02
8.643286573146293783e-01,9.156067910876716787e-02
8.687374749498999460e-01,8.789477680773044588e-02
8.731462925851705137e-01,8.453541892762780896e-02
8.775551102204408593e-01,8.146634971864227803e-02
8.819639278557114270e-01,7.868052461967091349e-02
8.863727454909819947e-01,7.616523534221733560e-02
8.907815631262525624e-01,7.389930262177882292e-02
8.951903807615231301e-01,7.187615969818865469e-02
8.995991983967936978e-01,7.008024410414004368e-02
9.040080160320642655e-01,6.851014769887922573e-02
9.084168336673348332e-01,6.713022114170275056e-02
9.128256513026051788e-01,6.592299547807280169e-02
9.172344689378757465e-01,6.487701525002628755e-02
9.216432865731463142e-01,6.397513992721842735e-02
9.260521042084168819e-01,6.320555407124715808e-02
9.304609218436874496e-01,6.255906267736999204e-02
9.348697394789580173e-01,6.202257373845639077e-02
9.392785571142285850e-01,6.158001848691788127e-02
9.436873747494991527e-01,6.123526823568367639e-02
9.480961923847697204e-01,6.096796926084833979e-02
9.525050100200400660e-01,6.076721096552281653e-02
9.569138276553106337e-01,6.062772675091800123e-02
9.613226452905812014e-01,6.054752784912302566e-02
9.657314629258517691e-01,6.052234683363757334e-02
9.701402805611223368e-01,6.054250893005726220e-02
9.745490981963929045e-01,6.060631785757152057e-02
9.789579158316634722e-01,6.070252596679583806e-02
9.833667334669340399e-01,6.083243931063898186e-02
9.877755511022043855e-01,6.099129147394734968e-02
9.921843687374749532e-01,6.117122317770738033e-02
9.965931863727455209e-01,6.137699797957102410e-02
1.001002004008016089e+00,6.161009947788109731e-02
1.005410821643286656e+00,6.188132494441706682e-02
1.009819639278557224e+00,6.215463435459007285e-02
1.014228456913827792e+00,6.243676464675309429e-02
1.018637274549098359e+00,6.272929875144600542e-02
1.023046092184368927e+00,6.303234744774516285e-02
1.027454909819639273e+00,6.333538525479513737e-02
1.031863727454909840e+00,6.364417052164098032e-02
1.036272545090180408e+00,6.395519551622597110e-02
1.040681362725450976e+00,6.426869888727540503e-02
1.045090180360721543e+00,6.458313507766902384e-02
1.049498997995992111e+00,6.489739108247964683e-02
1.053907815631262679e+00,6.521114267573610568e-02
1.058316633266533247e+00,6.552553002558068884e-02
1.062725450901803592e+00,6.583838736043426398e-02
1.067134268537074160e+00,6.615236446357528055e-02
1.071543086172344728e+00,6.646314885368016789e-02
1.075951903807615295e+00,6.677413774738655272e-02
1.080360721442885863e+00,6.708597428986395883e-02
1.084769539078156431e+00,6.739555543875411225e-02
1.089178356713426998e+00,6.770493169569985481e-02
1.093587174348697566e+00,6.801305614794628251e-02
1.097995991983968134e+00,6.831932534893375708e-02
1.102404809619238479e+00,6.864699125582418571e-02
1.106813627254509047e+00,6.899090913680047676e-02
1.111222444889779615e+00,6.933300240813883297e-02
1.115631262525050182e+00,6.967367637507929090e-02
1.120040080160320750e+00,7.001412157630015898e-02
1.124448897795591318e+00,7.035433458455442324e-02
1.128857715430861886e+00,7.069309857473107805e-02
1.133266533066132453e+00,7.103334356851562226e-02
1.137675350701402799e+00,7.136898302442198916e-02
1.142084168336673367e+00,7.170335788812851052e-02
1.146492985971943934e+00,7.203221098024581437e-02
1.150901803607214502e+00,7.236264119453450494e-02
1.155310621242485070e+00,7.268641678510198711e-02
1.159719438877755637e+00,7.300553119293699822e-02
1.164128256513026205e+00,7.332235940035090882e-02
1.168537074148296773e+00,7.363017101805900688e-02
1.172945891783567340e+00,7.393169307173157179e-02
1.177354709418837686e+00,7.422538117224680709e-02
1.181763527054108254e+00,7.451159611838133190e-02
1.186172344689378821e+00,7.478555289774362069e-02
1.190581162324649389e+00,7.504797361734952266e-02
1.194989979959919957e+00,7.530178672581572252e-02
1.199398797595190524e+00,7.553577583041662380e-02
1.203807615230461092e+00,7.579373456978161228e-02
1.208216432865731660e+00,7.604031331307554986e-02
1.212625250501002006e+00,7.626956930408199109e-02
1.217034068136272573e+00,7.647685258755632098e-02
1.221442885771543141e+00,7.666521272741111392e-02
1.225851703406813709e+00,7.683271076602979366e-02
1.230260521042084276e+00,7.697286192315863640e-02
1.234669338677354844e+00,7.708976153693250510e-02
1.239078156312625412e+00,7.718207055155579255e-02
1.243486973947895979e+00,7.724686504760491790e-02
1.247895791583166547e+00,7.728241699207585858e-02
1.252304609218436893e+00,7.728975844706696685e-02
1.256713426853707460e+00,7.726594362715388797e-02
1.261122244488978028e+00,7.721326942188130871e-02
1.265531062124248596e+00,7.712829862831496741e-02
1.269939879759519163e+00,7.701175267350972298e-02
1.274348697394789731e+00,7.686409672706859264e-02
1.278757515030060299e+00,7.668505351896021116e-02
1.283166332665330867e+00,7.647468550317182423e-02
1.287575150300601434e+00,7.623259937076305726e-02
1.291983967935871780e+00,7.595923124173406538e-02
1.296392785571142348e+00,7.565562643620307726e-02
1.300801603206412915e+00,7.533174806770331910e-02
1.305210420841683483e+00,7.502061304002555220e-02
1.309619238476954051e+00,7.468319107411047764e-02
1.314028056112224618e+00,7.431716482119138378e-02
1.318436873747495186e+00,7.392618421398863826e-02
1.322845691382765754e+00,7.350835133935225418e-02
1.327254509018036321e+00,7.307241496419361604e-02
1.331663326653306889e+00,7.261189472293369529e-02
1.336072144288577235e+00,7.213213042652348583e-02
1.340480961923847802e+00,7.163278200871733836e-02
1.344889779559118370e+00,7.112122224040075269e-02
1.349298597194388938e+00,7.059061941483540936e-02
1.353707414829659506e+00,7.004910563333269224e-02
1.358116232464930073e+00,6.949503547814372961e-02
1.362525050100200641e+00,6.893342411604544417e-02
1.366933867735471209e+00,6.836243232386952917e-02
1.371342685370741776e+00,6.778374682415530539e-02
1.375751503006012122e+00,6.720203570456659281e-02
1.380160320641282690e+00,6.661683769579315739e-02
1.384569138276553257e+00,6.603111266103060817e-02
1.388977955911823825e+00,6.544333101436436428e-02
1.393386773547094393e+00,6.485791616728921183e-02
1.397795591182364960e+00,6.427471602202594614e-02
1.402204408817635528e+00,6.371048151184943720e-02
1.406613226452906096e+00,6.316354449074451649e-02
1.411022044088176441e+00,6.262246091500964229e-02
1.415430861723447009e+00,6.208745963661757572e-02
1.419839679358717577e+00,6.155857764824565481e-02
1.424248496993988145e+00,6.103801100195226093e-02
1.428657314629258712e+00,6.052343941839469915e-02
1.433066132264529280e+00,6.002114785920618228e-02
1.437474949899799848e+00,5.952436757682012802e-02
1.441883767535070415e+00,5.903967065233207273e-02
1.446292585170340983e+00,5.856525058238694348e-02
1.450701402805611329e+00,5.810220382885461499e-02
1.455110220440881896e+00,5.764926661939799579e-02
1.459519038076152464e+00,5.720993089213377569e-02
1.463927855711423032e+00,5.678146740680507787e-02
1.468336673346693599e+00,5.636274392669028688e-02
1.472745490981964167e+00,5.595815594197024734e-02
1.477154308617234735e+00,5.556528264901102604e-02
1.481563126252505302e+00,5.518563633796654683e-02
1.485971943887775648e+00,5.481894161671645171e-02
1.490380761523046216e+00,5.446439919283307951e-02
1.494789579158316783e+00,5.412122508867896198e-02
1.499198396793587351e+00,5.379174432155515995e-02
1.503607214428857919e+00,5.346655594494410108e-02
1.508016032064128487e+00,5.315343668424941936e-02
1.512424849699399054e+00,5.285448375788633080e-02
1.516833667334669622e+00,5.256957683887511501e-02
1.521242484969940190e+00,5.229857303303508953e-02
1.525651302605210535e+00,5.204133507956966442e-02
1.530060120240481103e+00,5.179770400629436777e-02
1.534468937875751671e+00,5.156752327860708585e-02
1.538877755511022238e+00,5.135063014170547502e-02
1.543286573146292806e+00,5.114685307401557746e-02
1.547695390781563374e+00,5.095602546207687877e-02
1.552104208416833941e+00,5.077796700969157417e-02
1.556513026052104509e+00,5.061251333172567257e-02
1.560921843687374855e+00,5.045948028113549089e-02
1.565330661322645422e+00,5.031868922955373691e-02
1.569739478957915990e+00,5.018996152592286597e-02
1.574148296593186558e+00,5.007312586919161757e-02
1.578557114228457126e+00,4.996799815578573112e-02
1.582965931863727693e+00,4.987440762757143486e-02
1.587374749498998261e+00,4.979218225772353429e-02
1.591783567134268829e+00,4.972114586568414374e-02
1.596192384769539396e+00,4.966113321073518244e-02
1.600601202404809742e+00,4.960665025189904542e-02
1.605010020040080310e+00,4.952927335593751423e-02
1.609418837675350877e+00,4.946269453938721694e-02
1.613827655310621445e+00,4.940673187349858830e-02
1.618236472945892013e+00,4.936119188774190647e-02
1.622645290581162580e+00,4.932590597040933944e-02
1.627054108216433148e+00,4.930068779163762627e-02
1.631462925851703716e+00,4.928536028632338889e-02
1.635871743486974061e+00,4.927975448468576575e-02
1.640280561122244629e+00,4.928370837113635328e-02
1.644689378757515197e+00,4.929703944090590290e-02
1.649098196392785765e+00,4.931959461324453287e-02
1.653507014028056332e+00,4.935119521025602141e-02
1.657915831663326900e+00,4.939169052983077846e-02
1.662324649298597468e+00,4.944092318847206208e-02
1.666733466933868035e+00,4.949872115546521956e-02
1.671142284569138603e+00,4.956493538628237161e-02
1.675551102204408949e+00,4.963942067464269248e-02
1.679959919839679516e+00,4.972200329257748380e-02
1.684368737474950084e+00,4.981253730078203518e-02
1.688777555110220652e+00,4.991086437672077880e-02
1.693186372745491219e+00,5.001682332192865232e-02
1.697595190380761787e+00,5.013026476884799992e-02
1.702004008016032355e+00,5.024214585870660776e-02
1.706412825651302922e+00,5.035054777340589732e-02
1.710821643286573268e+00,5.046596056185284618e-02
1.715230460921843836e+00,5.058822142310312464e-02
1.719639278557114404e+00,5.071716016090807577e-02
1.724048096192384971e+00,5.085260746257837250e-02
1.728456913827655539e+00,5.099439417736249813e-02
1.732865731462926107e+00,5.114234238447209341e-02
1.737274549098196674e+00,5.129627892964280789e-02
1.741683366733467242e+00,5.145601713460164206e-02
1.746092184368737810e+00,5.162138089925384643e-02
1.750501002004008155e+00,5.179217810370766173e-02
1.754909819639278723e+00,5.196822181699545240e-02
1.759318637274549291e+00,5.214931579343879547e-02
1.763727454909819858e+00,5.233526031404595047e-02
1.768136272545090426e+00,5.252585422409027094e-02
1.772545090180360994e+00,5.272088407885863748e-02
1.776953907815631561e+00,5.292014115197248014e-02
1.781362725450902129e+00,5.312339962758197420e-02
1.785771543086172697e+00,5.333043911749784510e-02
1.790180360721443042e+00,5.354102570031100267e-02
1.794589178356713610e+00,5.375492213633438487e-02
1.798997995991984178e+00,5.397188667723278044e-02
1.803406813627254746e+00,5.419133900274963889e-02
1.807815631262525313e+00,5.441325619501488631e-02
1.812224448897795881e+00,5.463746409394493880e-02
1.816633266533066449e+00,5.486369449274238613e-02
1.821042084168337016e+00,5.509166887315063849e-02
1.825450901803607362e+00,5.532110156776352816e-02
1.829859719438877930e+00,5.555170345537240040e-02
1.834268537074148497e+00,5.578316974755515023e-02
1.838677354709419065e+00,5.601519991142510368e-02
1.843086172344689633e+00,5.624747624930041129e-02
1.847494989979960200e+00,5.647968058281661874e-02
1.851903807615230768e+00,5.671148606683985155e-02
1.856312625250501336e+00,5.694255428336435221e-02
1.860721442885771904e+00,5.717254928773417982e-02
1.865130260521042249e+00,5.740112157000467480e-02
1.869539078156312817e+00,5.762792293648948128e-02
1.873947895791583385e+00,5.785259440902986577e-02
1.878356713426853952e+00,5.807477234640169572e-02
1.882765531062124520e+00,5.829409258637099911e-02
1.887174348697395088e+00,5.851017880319364650e-02
1.891583166332665655e+00,5.872266060529746784e-02
1.895991983967936223e+00,5.893115777818080936e-02
1.900400801603206569e+00,5.913552994481192926e-02
1.904809619238477136e+00,5.933759851071149227e-02
1.909218436873747704e+00,5.953453933376597756e-02
1.913627254509018272e+00,5.972597266373370906e-02
1.918036072144288839e+00,5.991151287339838843e-02
1.922444889779559407e+00,6.009077804239769394e-02
1.926853707414829975e+00,6.026339021293922182e-02
1.931262525050100543e+00,6.042896924435517403e-02
1.935671342685371110e+00,6.058714631669719075e-02
1.940080160320641456e+00,6.073755244077445187e-02
1.944488977955912024e+00,6.087982126890727208e-02
1.948897795591182591e+00,6.101360593642877334e-02
1.953306613226453159e+00,6.113855804185931719e-02
1.957715430861723727e+00,6.125434384026237633e-02
1.962124248496994294e+00,6.136063636708478930e-02
1.966533066132264862e+00,6.145712045118848638e-02
1.970941883767535430e+00,6.154349528942180264e-02
1.975350701402805775e+00,6.161947018112876040e-02
1.979759519038076343e+00,6.168477211642576369e-02
1.984168336673346911e+00,6.173914062719283724e-02
1.988577154308617478e+00,6.178233006090116941e-02
1.992985971943888046e+00,6.181411973638061691e-02
1.997394789579158614e+00,6.183430112314956123e-02
2.001803607214429181e+00,6.184797795558104327e-02
2.006212424849699527e+00,6.185729321058898444e-02
2.010621242484970317e+00,6.185443032767993371e-02
2.015030060120240663e+00,6.183925515312831134e-02
2.019438877755511008e+00,6.181165326012293126e-02
2.023847695390781798e+00,6.177153224602866671e-02
2.028256513026052144e+00,6.171882114707934880e-02
2.032665330661322933e+00,6.165347214210725735e-02
2.037074148296593279e+00,6.157546185011393558e-02
2.041482965931864069e+00,6.148478788253101956e-02
2.045891783567134414e+00,6.138147014005790325e-02
2.050300601202404760e+00,6.126555190558397035e-02
2.054709418837675550e+00,6.113709835627401806e-02
